wave,flux,sigma
3300.0000000000005,0.023008031277973035,0.00021407244153073701
3311.0318870238752,0.023109822557889265,0.00020888115439878044
3322.1006535769357,0.024660206433986247,0.00019452242770616438
3333.2064229988164,0.025683207154783026,0.00020005770861331756
3344.349318964206,0.026610635382126952,0.0001946658825135775
3355.52946558699,0.026684769988679156,0.0001914048571271989
3366.7469873959726,0.027979688527488042,0.00019362989934305436
3378.0020093362546,0.02946883550458867,0.0001856061970455744
3389.2946567706267,0.030330874675803574,0.00018626665728212059
3400.6250554809667,0.03163026443351428,0.00018554607387177973
3411.9933316696415,0.033380397756417865,0.00018111411903000855
3423.3996119609133,0.03656144030703703,0.00018697122605095044
3434.844023402349,0.03937017482399552,0.0001920086036722893
3446.3266934662315,0.04104262652043103,0.00018768139953433393
3457.847750050986,0.04333346419968488,0.00018722564487137536
3469.4073214825994,0.04698172583104242,0.00019362468101903073
3481.0055365160556,0.05108294777763928,0.00019840358434185414
3492.6425243367635,0.05421666885531071,0.00019892639243691715
3504.318414561997,0.057487670941099495,0.00019721489476586071
3516.033337242342,0.057851123603509365,0.00019610137158948847
3527.7874228631417,0.057083300667984,0.0001950071995814432
3539.5808023459526,0.05721642732030261,0.00019227740147581605
3551.4136070500026,0.055662408558695725,0.00018950550515538342
3563.28596877365,0.05491256812660089,0.00018612206352022024
3575.198019755855,0.05301738740995439,0.00018302694884308058
3587.149892677652,0.04947597388770576,0.000177935759228841
3599.1417206636297,0.045779308161299104,0.00017004203042227553
3611.173637283412,0.04174019913037177,0.00015933644144085584
3623.2457765531435,0.036441075182845444,0.00014643419526407658
3635.3582729369846,0.030887441596738768,0.00013315568307546623
3647.511261348607,0.02605447924836634,0.00012111580084115569
3659.7048771527016,0.022302888045913745,0.00011136026176790288
3671.9392561664827,0.020196316588633075,0.00010410892687736524
3684.2145346612006,0.019090461371038196,9.952423948342641e-05
3696.5308493636576,0.018705959906544757,9.705548767075248e-05
3708.8883374577335,0.018910058521868195,9.74587329286066e-05
3721.2871365859164,0.0201425603352308,9.865185958419763e-05
3733.7273848508326,0.022188492815858482,0.0001000789426417932
3746.2092208167815,0.024590748500066952,0.0001029522934248416
3758.7327835112833,0.02678418521461285,0.0001085244814526029
3771.298212426627,0.030612091876628993,0.00011344066470077554
3783.9056475214256,0.034494777560879486,0.00011682435981705
3796.555229222173,0.03884455014972148,0.0001224316579875662
3809.247098424805,0.044834451647818414,0.0001295444898709682
3821.981396496276,0.05143466001260198,0.00013421733078387054
3834.758265276125,0.05674850827642799,0.00014127475358767877
3847.577847078064,0.06240155050061731,0.00014542810657009231
3860.4402846915605,0.0676823568335333,0.0001476102012676465
3873.3457213834213,0.07131946299458593,0.00015068551277289894
3886.294300899397,0.07400677698564471,0.00015245112794270757
3899.2861674657775,0.07526661803764977,0.00015440500762711014
3912.3214657910025,0.07708031558644407,0.0001552261746453376
3925.4003410672735,0.07652601960409725,0.00015294025614979027
3938.5229389721653,0.0741515699035786,0.00015001238128252827
3951.689405670252,0.07161220005959609,0.00014634628244579952
3964.8998878147377,0.06801732664672878,0.00014242027362976322
3978.154532549086,0.0660834068541434,0.000140590591683921
3991.453487508664,0.06499332525585418,0.00013720787571456093
4004.796900822377,0.06505588283814037,0.00013750791469807876
4018.18492111433,0.0667415870564193,0.0001417234662795856
4031.617697505474,0.06928779806683003,0.00014312881643914807
4045.0953796152735,0.07177291070208874,0.00014079333194081127
4058.618117563371,0.07260240878096436,0.0001391585456935428
4072.1860619712556,0.07424986618319196,0.0001385163929189309
4085.799363963945,0.07319630033208432,0.00013572862592199628
4099.458175171663,0.07129201744669662,0.00013300337021567788
4113.162647731542,0.06967671260204676,0.00013235316816491045
4126.912934289301,0.06781257143844946,0.00013295410377067474
4140.709188000954,0.0688626246959711,0.0001321181434281216
4154.551562534517,0.06763454769365494,0.00012943305182230467
4168.440212071713,0.06520797122800934,0.00012579532361996006
4182.3752913097,0.06326660870794085,0.00012299861017713246
4196.356955462785,0.061604529053885845,0.00012063959703747402
4210.385360264156,0.059466298121781384,0.00011790791366473874
4224.460661967617,0.05723731444832971,0.000114509272442487
4238.583017349324,0.0543357576141835,0.00011045084826335023
4252.752583709542,0.05124693541401582,0.00010604142332426068
4266.969518874386,0.04802477402204362,0.00010117604837801407
4281.233981197582,0.04375018098555474,9.659947391433348e-05
4295.5461295622345,0.0416895421664694,9.387409239782362e-05
4309.906123382591,0.04123290807231527,9.421376948484741e-05
4324.314122605823,0.04282426476056973,9.575310473042563e-05
4338.770287713807,0.044131615063492474,9.594695390167506e-05
4353.274779724901,0.04520936178570348,9.549718527301467e-05
4367.827760195754,0.045685389700481596,9.669412186051051e-05
4382.429391223097,0.04611717612445278,9.733584598010975e-05
4397.079835445547,0.04704505746514698,9.717014239071844e-05
4411.779256045427,0.04977212829685085,9.933991824445888e-05
4426.527816750571,0.05170453381374592,0.00010138636865401515
4441.32568183616,0.05390608738940797,0.00010193486251191327
4456.17301612654,0.05554457593355093,0.00010339010494004858
4471.06998499707,0.055381254320927914,0.00010324647991412781
4486.01675437596,0.05658663374698782,0.00010382193131904003
4501.013490746111,0.05732358989107017,0.00010407612046418614
4516.060361146975,0.05678923659717815,0.00010294591136556006
4531.157533176423,0.05554417306017069,0.00010193349369935816
4546.3051749926035,0.05523956024193985,0.00010065295487610491
4561.503455315809,0.055519105461921125,0.00010124178812432953
4576.752543430374,0.055533751181875105,0.00010056038404507483
4592.052609186547,0.05502343796911117,9.948521308350469e-05
4607.403823002376,0.05225162536121878,9.779909396804408e-05
4622.8063558656295,0.04832765522095255,9.366110577277667e-05
4638.260379335682,0.04621061620791574,9.08782818542065e-05
4653.766065545426,0.04586270862982661,9.113455993449752e-05
4669.323587203196,0.04578521244262644,9.087001881299961e-05
4684.933117594696,0.044379266083367105,8.822991473102042e-05
4700.594830584916,0.04166633316946212,8.464780893836878e-05
4716.308900620076,0.03813150059010338,8.150722366782293e-05
4732.075502729573,0.03664485304913585,8.005430459605388e-05
4747.894812527928,0.036831765446136124,8.027418106083849e-05
4763.767006216733,0.03750080072136085,8.073069806668228e-05
4779.692260586626,0.036600849903667604,7.977590058296472e-05
4795.67075301926,0.0343401112168621,7.749342179383194e-05
4811.702661489265,0.032055617877983764,7.480647883079553e-05
4827.7881645662455,0.02953504738809008,7.199961021404451e-05
4843.927441416762,0.028112366535878692,6.987161999891166e-05
4860.120671806329,0.027501758675898803,6.887941034987272e-05
4876.368036101411,0.02803741407012248,6.893523449379105e-05
4892.669715271444,0.028913360192522414,7.015201135233295e-05
4909.025890890844,0.03020959839356545,7.24768272557716e-05
4925.436745141022,0.031183086073046498,7.474332472760403e-05
4941.902460812428,0.0315266578187968,7.584233707792426e-05
4958.423221306581,0.03278507326272223,7.774539828361537e-05
4974.999210638101,0.03441570133104197,8.189826270517242e-05
4991.630613436779,0.034658278831505726,8.594134202182743e-05
5008.317614949616,0.03550299246876701,9.012527313066749e-05
5025.060401042893,0.037125888631559675,9.734834207231735e-05
5041.8591582042445,0.03835961618168786,0.0001042952127794101
5058.71407354473,0.03986765293580288,0.00010999467106367588
5075.625334800925,0.041001587078480915,0.00011385898326847189
5092.593130337,0.04055953938181445,0.0001061941939189657
5109.61764914683,0.04009754899526423,9.390211965984232e-05
5126.699080856102,0.03933315408273851,9.200877408083143e-05
5143.837615724411,0.03990055692795971,0.0001127777522777729
5161.033444647393,0.04194944059856756,0.00015273753648430223
5178.286759158847,0.04272012336154597,0.00013824923767934524
5195.59775143287,0.04066252167550653,0.00011817110336697502
5212.966614285993,0.03766063568285296,0.00010450961170439922
5230.393541179339,0.03537463231905255,9.729693211744468e-05
5247.878726220767,0.03383389224219582,9.293787790398195e-05
5265.4223641670305,0.03380231555407305,9.061544420264571e-05
5283.024650425963,0.03325943087176565,8.884273486757314e-05
5300.685781058646,0.033367033956221565,8.658233614238035e-05
5318.405952781588,0.033488406797758365,8.269643470244213e-05
5336.185362968923,0.03250404909726493,7.786012589573098e-05
5354.024209654601,0.03187893046530772,7.385174838583202e-05
5371.922691534604,0.031053316645204308,7.038456278655955e-05
5389.88100796915,0.029634121028686074,6.704125381796736e-05
5407.899358984922,0.028202922671356104,6.388738890171764e-05
5425.977945277293,0.0271620005452998,6.149478637966781e-05
5444.116968212549,0.027522130413054634,6.0623517167612506e-05
5462.316629830153,0.029039972430936305,6.087107322597296e-05
5480.577132844979,0.030175347491359753,6.126809268059436e-05
5498.89868064958,0.030455504211727567,6.042787505725424e-05
5517.28147731645,0.030337160120325043,5.8863086873275746e-05
5535.725727600293,0.031113754992689074,5.818764961445597e-05
5554.23163694031,0.031797658390126236,5.858336653881191e-05
5572.79941146248,0.03169131304211424,5.816890169730594e-05
5591.429257981867,0.031404232004593385,5.648666209159289e-05
5610.121384004915,0.031131554050281004,5.5393474892577895e-05
5628.875997731756,0.0309444514005988,5.453086004429806e-05
5647.69330805854,0.030487051743651745,5.303681793992886e-05
5666.573524579752,0.029767060772153884,5.1847457787614206e-05
5685.516857590555,0.02860996431585317,5.005655543467484e-05
5704.523518089128,0.02656956285861209,4.77930983933219e-05
5723.593717779009,0.024970501503371947,4.5779056279504945e-05
5742.727669071467,0.024348056323940104,4.442411659514775e-05
5761.925585087854,0.024647050325326086,4.402472764693831e-05
5781.187679661996,0.024930533665345152,4.368176251549888e-05
5800.5141673425605,0.025787825348550845,4.3662254934481196e-05
5819.905263395445,0.026731101419675714,4.41853049940932e-05
5839.361183806187,0.027222642258639226,4.4017141944580956e-05
5858.882145282354,0.027515619883596118,4.349067736246396e-05
5878.468365255977,0.027661185459912627,4.3334818738662955e-05
5898.12006188596,0.02790226864928173,4.3524210323473575e-05
5917.837454060502,0.028325254058541652,4.355873887822283e-05
5937.620761399551,0.0280552234194549,4.2778482218136654e-05
5957.470204257241,0.026869189143248942,4.1136742349831746e-05
5977.386003724353,0.02438531713605109,3.890666023041589e-05
5997.368381630775,0.021571039433179014,3.6248395974837733e-05
6017.417560547961,0.018267023494946168,3.325833239196282e-05
6037.533763791432,0.015175587104199369,3.0302915882836534e-05
6057.717215423248,0.012848815779940941,2.7948567264511464e-05
6077.968140254503,0.011706444107301768,2.6456659739785794e-05
6098.286763847838,0.011823621319002536,2.597060712381108e-05
6118.673312519953,0.012852801710918012,2.646637494117652e-05
6139.128013344114,0.014279841321020418,2.767581545085293e-05
6159.651094152697,0.016542747225640655,2.965898663943426e-05
6180.242783539723,0.018906838450151838,3.1343443075428866e-05
6200.903310863401,0.02128935142663116,3.2520222954268946e-05
6221.632906248681,0.023193812131589164,3.387632119638403e-05
6242.431800589825,0.024572143253382674,3.44691075327153e-05
6263.300225552964,0.025559253906783923,3.471337029726877e-05
6284.238413578695,0.02599046399535975,3.5438486895221524e-05
6305.246597884667,0.025752661415089875,3.465530900434493e-05
6326.325012468166,0.025527544181131546,3.371303096174961e-05
6347.4738921087355,0.025995552440332293,3.383652340171675e-05
6368.693472370778,0.026467271984542212,3.382874443280494e-05
6389.9839896061985,0.026158033660023297,3.302467281159976e-05
6411.345680957023,0.0258051206532422,3.289948097301221e-05
6432.7787843580345,0.02552512907472565,3.259825650075643e-05
6454.283538539437,0.025238113884224214,3.188846005091786e-05
6475.860183029508,0.02490114008125393,3.148253260054567e-05
6497.508958157264,0.02488991419290045,3.130191328954498e-05
6519.230105055148,0.024342414899150712,3.106169751446206e-05
6541.023865661702,0.02381012299570093,3.064866609667991e-05
6562.890482724266,0.023324868761928904,3.005881586108032e-05
6584.830199801685,0.022847154826262553,2.9399009505788315e-05
6606.843261267024,0.0223620370745616,2.88754931774256e-05
6628.929912310285,0.02200958143514364,2.8504202453175908e-05
6651.0903989411345,0.02170722751284443,2.807382624379561e-05
6673.324967991654,0.02107442788823396,2.735968713832096e-05
6695.633867119077,0.0203532944674422,2.653897977473395e-05
6718.017344808559,0.019884665803539134,2.596285436109978e-05
6740.475650375945,0.019463490364317968,2.5628449209793867e-05
6763.009033970533,0.01901425480332565,2.5399842036141376e-05
6785.617746577873,0.018761705256536036,2.5003300132670335e-05
6808.302040022556,0.01868813632005445,2.4735428642772897e-05
6831.062166971027,0.018417327653202482,2.4608809483632057e-05
6853.898380934393,0.017948079221814683,2.4499552574532576e-05
6876.81093627124,0.01811845489200234,2.681071521731114e-05
6899.8000881904845,0.018060551515254396,2.525211174867882e-05
6922.866092754194,0.01772555956465884,2.3819852334975273e-05
6946.0092068804615,0.017224627357407554,2.3353022511166994e-05
6969.229688346255,0.017067142271535024,2.299972004743729e-05
6992.52779579028,0.017057126280440982,2.3075425983847255e-05
7015.903788715879,0.017274069039023142,2.309468250301786e-05
7039.357927493908,0.01732818588720486,2.2799059427816153e-05
7062.890473365647,0.017289996175672638,2.2724074880449773e-05
7086.501688445705,0.017437720862396013,2.288493223745158e-05
7110.191835724931,0.01740231386164421,2.293889991827099e-05
7133.961179073358,0.017292922141950346,2.2725617544381002e-05
7157.809983243131,0.017038597436351367,2.2419295009976e-05
7181.738513871466,0.016589149922414836,2.2531753852826278e-05
7205.747037483605,0.01639231420538669,2.2098772525068835e-05
7229.835821495773,0.01627730796917346,2.216865866779433e-05
7254.005134218174,0.016086764845062045,2.1991277191101608e-05
7278.255244857964,0.015419988660368929,2.1654081621563447e-05
7302.586423522268,0.014975087899860715,2.1035721774188236e-05
7326.998941221176,0.014494898308984223,2.039008351182614e-05
7351.493069870756,0.014447111585935667,2.0298213331544156e-05
7376.069082296098,0.01432866215193939,2.0355655651761444e-05
7400.727252234339,0.014060266440698781,2.002066507357408e-05
7425.467854337722,0.013019147606362302,1.923526487578523e-05
7450.291164176657,0.012028964440315317,1.8599486652890772e-05
7475.197458242774,0.011676653684372715,1.8237032562854375e-05
7500.187013952019,0.011461465650412894,1.804743318962304e-05
7525.260109647734,0.011189639813948344,1.7854476737306857e-05
7550.4170246037675,0.011141728766942244,1.7737577901743718e-05
7575.658039027581,0.011333346994255984,1.7268892659953044e-05
7600.9834340633615,0.011792099426443582,3.509458534030681e-05
7626.393491795165,0.012128252396884337,2.477898778696274e-05
7651.888495250046,0.012657731654036553,2.1310231949909025e-05
7677.468728401224,0.013180162495515981,1.9695230235222655e-05
7703.134476171246,0.013654718872105908,1.976186891118342e-05
7728.886024435141,0.014012822006757051,1.994735561822077e-05
7754.723660023623,0.014169769363832145,1.999606169290021e-05
7780.6476707262755,0.014030352097017466,1.989921822573221e-05
7806.658345294771,0.013669283032111212,1.970601212515876e-05
7832.755973446074,0.013107626109899864,1.9339191345416036e-05
7858.940845865665,0.011825204916018748,1.8543637013786092e-05
7885.213254210794,0.01006578644579084,1.7296957874598157e-05
7911.573491113709,0.00830469938620779,1.5904215574124245e-05
7938.021850184939,0.006908488892342439,1.4470635056251355e-05
7964.558626016547,0.006144330060024083,1.3678675087635997e-05
7991.184114185413,0.005839557640339514,1.3476079734802798e-05
8017.898611256533,0.005832531420630484,1.341432116916248e-05
8044.702414786312,0.005788002858291176,1.3281965214258961e-05
8071.595823325894,0.005668831058792069,1.3189403471404724e-05
8098.57913642448,0.005706816923086,1.3227106665935327e-05
8125.652654632648,0.005853574547833865,1.3377126931992041e-05
8152.81667950573,0.005754884355565593,1.3695706902531623e-05
8180.07151360715,0.006072872020469562,1.4043178577738216e-05
8207.417460511802,0.006559972765902211,1.4277178681622438e-05
8234.854824809423,0.007385341803569362,1.5390516121972146e-05
8262.383912108004,0.007868368212602214,1.582702210227001e-05
8290.005029037178,0.008051893337747792,1.6035130364021002e-05
8317.718483251632,0.008517043941577294,1.633942043513132e-05
8345.524583434553,0.009408652033118442,1.706800228348303e-05
8373.42363930105,0.010284294688293883,1.7770829424437766e-05
8401.415961601604,0.011042164015085183,1.8425451836513368e-05
8429.501862125539,0.01153237902428363,1.877393418482068e-05
8457.681653704487,0.011887830716319362,1.9035906807679368e-05
8485.955650215876,0.01227257454564834,1.931450136647375e-05
8514.324166586423,0.012521685834497625,1.9589616803347894e-05
8542.787518795645,0.012417596463293538,1.9497717638488965e-05
8571.346023945849,0.012382117028268143,1.928402934745387e-05
8600.000000000004,0.012501470946420588,1.936542577594599e-05
