wave,flux,sigma
3300.0000000000005,0.26339992824232505,0.00451848444727337
3311.0318870238752,0.2743847453301859,0.004519519596717699
3322.1006535769357,0.29406726677978656,0.004450878877169358
3333.2064229988164,0.3118362873147304,0.004472880034238143
3344.349318964206,0.31994036375305457,0.004376393614395516
3355.52946558699,0.31045861241273065,0.004305710975946916
3366.7469873959726,0.3036965759089703,0.004202122223333207
3378.0020093362546,0.3061357541519972,0.004069957434836904
3389.2946567706267,0.314434427522314,0.004088409682715116
3400.6250554809667,0.31814261380337483,0.004048161311296168
3411.9933316696415,0.32404371606495785,0.003960592530090943
3423.3996119609133,0.33055378300400784,0.0040254254018303745
3434.844023402349,0.3335516244613116,0.003998833204062888
3446.3266934662315,0.33057184948596574,0.003878640777811992
3457.847750050986,0.33109115507164943,0.003829657383052419
3469.4073214825994,0.32998283806072204,0.003813416521123803
3481.0055365160556,0.311805618503804,0.0037278623964336908
3492.6425243367635,0.3038228662840006,0.0035605478830675517
3504.318414561997,0.2841760993945633,0.0034208772264534702
3516.033337242342,0.25738787818717546,0.0032664236890950467
3527.7874228631417,0.2330865662512282,0.0031269618926727995
3539.5808023459526,0.21206933043378223,0.0029900567710593965
3551.4136070500026,0.18722527129650968,0.002838233672580294
3563.28596877365,0.16681770665991405,0.002687108587998817
3575.198019755855,0.14490799966976406,0.002533085526768952
3587.149892677652,0.11704373121739615,0.002381308848808281
3599.1417206636297,0.1005890384495134,0.0022137237110179827
3611.173637283412,0.0905609101968848,0.0020809810016583206
3623.2457765531435,0.08336476674502541,0.0019771584237994813
3635.3582729369846,0.07957734693220765,0.0019194185907652403
3647.511261348607,0.08662882672812057,0.0019012789373688396
3659.7048771527016,0.0951784436851043,0.0019626557312354327
3671.9392561664827,0.11399875615984617,0.0020344663649991272
3684.2145346612006,0.13189952285419843,0.002134178219958057
3696.5308493636576,0.15016072333723887,0.0022310871638155814
3708.8883374577335,0.17232367944896243,0.0023662014098040705
3721.2871365859164,0.20381182508334167,0.0024747647562289614
3733.7273848508326,0.235481127999006,0.002556322665355342
3746.2092208167815,0.2746488894573007,0.0026514840969586637
3758.7327835112833,0.30441245431045016,0.0027661824172893154
3771.298212426627,0.32463999150854816,0.002824344954884576
3783.9056475214256,0.35186783834235896,0.002843043357461902
3796.555229222173,0.3831832458356077,0.0029563597921775965
3809.247098424805,0.4248879156679237,0.0030808995937483485
3821.981396496276,0.4568127696213675,0.003165320306719555
3834.758265276125,0.4868986494977007,0.003297101310560332
3847.577847078064,0.5134996726452203,0.003305141725154655
3860.4402846915605,0.5011656902142627,0.0031941860194825275
3873.3457213834213,0.4694903699024303,0.0031252214763043294
3886.294300899397,0.47376360664282124,0.0030734119807315947
3899.2861674657775,0.4673051161304205,0.0030601042202195953
3912.3214657910025,0.4651306424739589,0.0030549061684210545
3925.4003410672735,0.47144319448084937,0.0030547096596985714
3938.5229389721653,0.47040459073171403,0.003134586112482385
3951.689405670252,0.47150651293590706,0.003145647948983065
3964.8998878147377,0.4630783692831063,0.003009569745514777
3978.154532549086,0.44679645225263476,0.002871527694722675
3991.453487508664,0.45488708118795185,0.002811369343389604
4004.796900822377,0.4868645604725843,0.002871226475514557
4018.18492111433,0.5074266680043196,0.002946234235569499
4031.617697505474,0.5200075289259949,0.002980099261516944
4045.0953796152735,0.5335118750008303,0.0030556713768100864
4058.618117563371,0.5563157920302911,0.0031095710422620053
4072.1860619712556,0.5447347084166401,0.003042988412269955
4085.799363963945,0.5215405193694967,0.0028909863538071254
4099.458175171663,0.5006121495974674,0.0027643332430725884
4113.162647731542,0.4824002187656915,0.0027030380755175675
4126.912934289301,0.4802783145772407,0.002676129848066069
4140.709188000954,0.4619725012274397,0.00264528583844366
4154.551562534517,0.4409351184730311,0.0025913264058208562
4168.440212071713,0.4152852704712362,0.0025186091305659983
4182.3752913097,0.38455185871623426,0.0024475597246483047
4196.356955462785,0.36662468188672337,0.002382117944028689
4210.385360264156,0.3509802237556866,0.002301246501673218
4224.460661967617,0.3258589230909565,0.0022085835756405483
4238.583017349324,0.3047095919448457,0.002129483649952665
4252.752583709542,0.2922531488520221,0.0020531083224870498
4266.969518874386,0.275374598882938,0.0019969081854799777
4281.233981197582,0.27799756905605133,0.0019819501484770598
4295.5461295622345,0.2823793127586507,0.0019850542408348247
4309.906123382591,0.2829608053989331,0.0020102531069360733
4324.314122605823,0.30312731068366594,0.00206503926400404
4338.770287713807,0.3187137442222655,0.002082457390829799
4353.274779724901,0.3239512554233754,0.0020683772566954662
4367.827760195754,0.3302931870120337,0.002088716304952908
4382.429391223097,0.32728256583845916,0.002095221231000499
4397.079835445547,0.3304997439383988,0.0020731272833788457
4411.779256045427,0.34721525716294266,0.0021141103957521595
4426.527816750571,0.37249029432965713,0.0021715744015075016
4441.32568183616,0.39557487651133116,0.0022047699513641546
4456.17301612654,0.4169215033092143,0.002255331084675049
4471.06998499707,0.4276457063009885,0.002267098067163341
4486.01675437596,0.42877908816641785,0.0022750390289815316
4501.013490746111,0.42964757838394896,0.0022585861054729667
4516.060361146975,0.41703526225446375,0.0022199465718287775
4531.157533176423,0.4086267679089983,0.002183556498683049
4546.3051749926035,0.39248341073034526,0.0021222402961988303
4561.503455315809,0.3694528308965739,0.002075881241577818
4576.752543430374,0.353090120665404,0.002008168021953705
4592.052609186547,0.3366496354283317,0.001953314812044744
4607.403823002376,0.3095132330856195,0.0018991259943399955
4622.8063558656295,0.2841368223856216,0.001802928482644096
4638.260379335682,0.26603433053796693,0.0017432267749447705
4653.766065545426,0.2607110386333609,0.0017519719638630791
4669.323587203196,0.26393930527761494,0.0017509784432355783
4684.933117594696,0.25778456921134035,0.0017075135552281355
4700.594830584916,0.2429640502262636,0.001648130995330222
4716.308900620076,0.22427099235237558,0.0015888871078353242
4732.075502729573,0.208701142800357,0.0015392427667045678
4747.894812527928,0.19444076424016887,0.0015100997852547072
4763.767006216733,0.19379042805170432,0.001504161829157437
4779.692260586626,0.19311555195997646,0.0015119155325348916
4795.67075301926,0.1939012026207675,0.0015129179531482967
4811.702661489265,0.1944663361714931,0.0015133880798504499
4827.7881645662455,0.19398497466839273,0.0015139424877249486
4843.927441416762,0.1917778604094241,0.001503384329161497
4860.120671806329,0.18693720530105049,0.0015053433963733512
4876.368036101411,0.19215547597108615,0.0015494281093442145
4892.669715271444,0.20234559305612243,0.0016297307610698489
4909.025890890844,0.21454227545144922,0.0017390597600157704
4925.436745141022,0.22063764360381902,0.0018816430642614708
4941.902460812428,0.22939133234489653,0.0019945124521261195
4958.423221306581,0.22757275392426363,0.0020828217217726806
4974.999210638101,0.23405277162772942,0.002202567669477663
4991.630613436779,0.24031260524637454,0.002272028443454809
5008.317614949616,0.24711501202619168,0.0022545512556786055
5025.060401042893,0.2612574367446962,0.0019689993938571777
5041.8591582042445,0.2689973219927878,0.0019682142859521377
5058.71407354473,0.2762544025001713,0.0019512860686111116
5075.625334800925,0.27300057929047095,0.003278439303150806
5092.593130337,0.269519149277157,0.002862798987659691
5109.61764914683,0.2712291589184781,0.002467494853081003
5126.699080856102,0.2626949756632585,0.0022195484832451414
5143.837615724411,0.2556394904130007,0.002094888630660003
5161.033444647393,0.23699196628763108,0.0020160306353629704
5178.286759158847,0.21524095382586195,0.0019117461325285974
5195.59775143287,0.20353388029318603,0.001784821460539236
5212.966614285993,0.19414959442341212,0.0016901970105028933
5230.393541179339,0.17956329640724278,0.0015851586346336145
5247.878726220767,0.1789448587819546,0.0014816624596659562
5265.4223641670305,0.18657593153896193,0.0014309570808361816
5283.024650425963,0.18684004331793377,0.0014121901338298472
5300.685781058646,0.19235109438619433,0.001386565003511445
5318.405952781588,0.1894171606025396,0.001334108267578444
5336.185362968923,0.18088499449644316,0.0012657939915745806
5354.024209654601,0.17144773093527205,0.0012022507387823992
5371.922691534604,0.16159118879214104,0.0011502245267358679
5389.88100796915,0.16313353217400298,0.0011169683637516827
5407.899358984922,0.1634877715193901,0.001104504840019065
5425.977945277293,0.1732331854824749,0.0011088835165235836
5444.116968212549,0.1856100541963036,0.0011279299247059808
5462.316629830153,0.2008580603120943,0.0011600630262181607
5480.577132844979,0.22065422915735103,0.0012206875139825232
5498.89868064958,0.2276413730956516,0.0012207692143438851
5517.28147731645,0.22294594318643096,0.001147866594283773
5535.725727600293,0.21692254241107883,0.0011083190164059736
5554.23163694031,0.21390904505738234,0.0010972986976869807
5572.79941146248,0.2188889727961477,0.0010830856852203365
5591.429257981867,0.2110720156957993,0.0010447043700584056
5610.121384004915,0.20138113740085717,0.0010125397322118242
5628.875997731756,0.1966100754615058,0.0009868758939540275
5647.69330805854,0.1948106361634124,0.0009620749562010139
5666.573524579752,0.19700465972368653,0.0009510317142929619
5685.516857590555,0.1927327847758673,0.0009335780983755232
5704.523518089128,0.19527892379987288,0.0009219169750819866
5723.593717779009,0.19780643291409228,0.0009177101444748444
5742.727669071467,0.20185944274316328,0.0009108758007820505
5761.925585087854,0.20493131777389184,0.0009124682919272654
5781.187679661996,0.20700509644235102,0.0009073938477950469
5800.5141673425605,0.20311358682123482,0.0009015161787406651
5819.905263395445,0.21259243564763086,0.0009033473485676947
5839.361183806187,0.21331089915865836,0.0008917200474331933
5858.882145282354,0.2082756361908971,0.0008633916000687076
5878.468365255977,0.1927709309450013,0.0008241553296843644
5898.12006188596,0.16420415447724399,0.0007721166015878624
5917.837454060502,0.1376389001353891,0.0007118411779370758
5937.620761399551,0.11630664575044117,0.0006497388453949296
5957.470204257241,0.09960656431612835,0.0005966017317599857
5977.386003724353,0.0886905661984746,0.0005593087724236991
5997.368381630775,0.08485003590262297,0.0005410654882837583
6017.417560547961,0.08371250447049719,0.0005322101181251389
6037.533763791432,0.08373987008371708,0.0005283941027034692
6057.717215423248,0.08398507653590281,0.0005287864935028849
6077.968140254503,0.08634521455671905,0.0005336697212339872
6098.286763847838,0.09667168385423999,0.0005469867879536824
6118.673312519953,0.11081069036274009,0.0005711600874653904
6139.128013344114,0.12936565755378887,0.000604510910388608
6159.651094152697,0.1482097782921215,0.0006429620641182045
6180.242783539723,0.16187195179392241,0.0006661109854406847
6200.903310863401,0.178411712676073,0.0006768365850799194
6221.632906248681,0.18997449086672352,0.0006932500490474922
6242.431800589825,0.19681804056806126,0.0006967266645272901
6263.300225552964,0.20099066550787748,0.0006948312304761676
6284.238413578695,0.2025487445138469,0.0006927105107221216
6305.246597884667,0.20279189309192475,0.0006877582611308783
6326.325012468166,0.20038302810584285,0.0006795440724105128
6347.4738921087355,0.1947302340572974,0.0006720644736536096
6368.693472370778,0.19458701475715817,0.0006636679839851495
6389.9839896061985,0.18884269180120064,0.0006459100192427653
6411.345680957023,0.1814601790890244,0.0006360499262543632
6432.7787843580345,0.1758567709318715,0.0006229060930535956
6454.283538539437,0.17055993015088333,0.0006052458023024996
6475.860183029508,0.16556221015618042,0.0005903095058563706
6497.508958157264,0.1605155359039828,0.0005786327748911503
6519.230105055148,0.15649006022739997,0.0005699952840850147
6541.023865661702,0.15232503681069592,0.0005607395302471199
6562.890482724266,0.1478760044796178,0.0005502439014090415
6584.830199801685,0.1465002433981453,0.0005397618310573534
6606.843261267024,0.14129351494488837,0.0005283200420162092
6628.929912310285,0.13469053079069548,0.0005175486835210561
6651.0903989411345,0.13285675026847957,0.0005083111162968229
6673.324967991654,0.1291913148218657,0.0004983453616092153
6695.633867119077,0.12773897846350493,0.0004885984511289974
6718.017344808559,0.12531486799477462,0.00048155460048908324
6740.475650375945,0.12214286072580452,0.00048317585401847884
6763.009033970533,0.12094134514453221,0.0004988860357534932
6785.617746577873,0.1189206342153492,0.0004882870739404645
6808.302040022556,0.11639778883853208,0.00046575914637757423
6831.062166971027,0.11393130198574243,0.00045484297779612045
6853.898380934393,0.11288683376511553,0.0004474955348087644
6876.81093627124,0.11051781195419555,0.00044258252878868554
6899.8000881904845,0.1089125691376239,0.0004356212923916917
6922.866092754194,0.1072890266118546,0.0004303268676701558
6946.0092068804615,0.10725820998838065,0.0004278085528945284
6969.229688346255,0.10645559722296191,0.00042258230094742964
6992.52779579028,0.10455299119518123,0.00042237561846484917
7015.903788715879,0.10434470989903691,0.0004197975174457416
7039.357927493908,0.10462769916641695,0.0004150684377745023
7062.890473365647,0.10465635903081355,0.00041689726527167735
7086.501688445705,0.1033607017571474,0.0004177328933588067
7110.191835724931,0.10224454558341398,0.00041821535685895546
7133.961179073358,0.10124963237853205,0.00041564669853227725
7157.809983243131,0.09838803286977466,0.0004082495839357885
7181.738513871466,0.09502843811435505,0.0003981792031557501
7205.747037483605,0.08706488711466262,0.0003821967270903838
7229.835821495773,0.07959420996637546,0.0003656128368714222
7254.005134218174,0.07145924833533504,0.00035023856757195835
7278.255244857964,0.06629639950121713,0.00033799360713311
7302.586423522268,0.06379964682632307,0.000331370680789942
7326.998941221176,0.06770707488413388,0.00033331879479611595
7351.493069870756,0.07002039855318294,0.0003393133517822656
7376.069082296098,0.07327596752716117,0.0003467701624054523
7400.727252234339,0.07462090688769528,0.00035013373126788563
7425.467854337722,0.07600334699010376,0.0003487529815295143
7450.291164176657,0.07590620978223954,0.00035295126222246895
7475.197458242774,0.07544447371157892,0.0004399422533128846
7500.187013952019,0.07807829040225851,0.0004656062604913901
7525.260109647734,0.07581845588187289,0.00040795552535576913
7550.4170246037675,0.07667563234373632,0.0003627994827320247
7575.658039027581,0.07603180115334371,0.00035442885681622946
7600.9834340633615,0.07586971405233893,0.000355021346298299
7626.393491795165,0.0766160775816261,0.0003527896841298146
7651.888495250046,0.07614633806464993,0.00035324739722160197
7677.468728401224,0.07657236323728206,0.00035814117450737147
7703.134476171246,0.07712991395815645,0.00035807588677167477
7728.886024435141,0.07674229346720358,0.00035697476885495575
7754.723660023623,0.07457449175526948,0.00035221009438875884
7780.6476707262755,0.07423863355699867,0.0003506258574108227
7806.658345294771,0.07114867769717398,0.00034353843723880907
7832.755973446074,0.06752921944296994,0.0003344064709407387
7858.940845865665,0.06311288413159197,0.0003286104331669288
7885.213254210794,0.058987371589807644,0.0003197475003031455
7911.573491113709,0.05396418340841192,0.0003065929967694994
7938.021850184939,0.048986856831903666,0.0002916387249197467
7964.558626016547,0.044083511167647846,0.0002760645649260655
7991.184114185413,0.03911925328775158,0.0002662816350275236
8017.898611256533,0.03725168035068295,0.00026293004890479594
8044.702414786312,0.037835759524102855,0.0002633932164112728
8071.595823325894,0.038108927328288404,0.00026355001315803617
8098.57913642448,0.038548185639424415,0.00026407533992955825
8125.652654632648,0.03924270211897049,0.0002654365304584742
8152.81667950573,0.03846495783090759,0.00027433658003842573
8180.07151360715,0.0376739660504818,0.00026918112047531685
8207.417460511802,0.04001882350353343,0.0002788334805360316
8234.854824809423,0.04351482138906508,0.0002876518092137686
8262.383912108004,0.04846683911956287,0.0003019458767486286
8290.005029037178,0.05368357871474272,0.00031310279958017475
8317.718483251632,0.05873534371697611,0.00032077344561354823
8345.524583434553,0.06103248411239036,0.0003240408334040609
8373.42363930105,0.06453788719391286,0.00032954755315012555
8401.415961601604,0.06853565571102238,0.0003340035894172968
8429.501862125539,0.06906023846017352,0.00033476702634529403
8457.681653704487,0.06941151296191986,0.0003366126601937274
8485.955650215876,0.07020658402176916,0.0003463238754159545
8514.324166586423,0.06893811225442276,0.0003495444815564858
8542.787518795645,0.06858529248648734,0.0003428290375407393
8571.346023945849,0.06732849612202649,0.00033017140465508974
8600.000000000004,0.06344690989879505,0.000325531780227855
