wave,flux,sigma
3300.0000000000005,0.7541600337813565,0.0037370593072228227
3311.0318870238752,0.81559892689121,0.0037607939394142644
3322.1006535769357,0.8790263219263323,0.003760770791981488
3333.2064229988164,0.9165873485933589,0.0037896652534428104
3344.349318964206,0.9522606348484154,0.0037365571235441807
3355.52946558699,0.95387351102028,0.0037034573294289067
3366.7469873959726,0.9588703411036762,0.0036671073448276375
3378.0020093362546,0.9982748070297683,0.0035800157897895833
3389.2946567706267,1.0627707293100497,0.0036539442942320156
3400.6250554809667,1.1388534789491156,0.0036945694766048484
3411.9933316696415,1.2470616179422387,0.003717717051080865
3423.3996119609133,1.3329887743205586,0.0038353347709101687
3434.844023402349,1.3346104673763493,0.003814451325023977
3446.3266934662315,1.283269893835367,0.0036573457763552364
3457.847750050986,1.2656520812769418,0.0035561621151782145
3469.4073214825994,1.2571000414915647,0.0035139275760714146
3481.0055365160556,1.2286528737605713,0.003421052129884223
3492.6425243367635,1.1756500569815094,0.0032837075845140217
3504.318414561997,1.1357358030493592,0.003195934576922363
3516.033337242342,1.131665743185009,0.003164571281659121
3527.7874228631417,1.1346083876975794,0.0031332595465797977
3539.5808023459526,1.1205876637457335,0.003069476328971303
3551.4136070500026,1.0629600520667277,0.002957556126175345
3563.28596877365,0.9489416564255377,0.002801087787708705
3575.198019755855,0.8231533014474264,0.002615870112693227
3587.149892677652,0.6924090756816975,0.0024152313126812046
3599.1417206636297,0.561263196551101,0.0021643647903977254
3611.173637283412,0.4201990950815593,0.0019040687270921867
3623.2457765531435,0.3409039703994065,0.0016805663980677952
3635.3582729369846,0.303674545134323,0.0015560912868544732
3647.511261348607,0.29934420578241594,0.0015145746628622543
3659.7048771527016,0.3221923370579755,0.0015381038096127053
3671.9392561664827,0.3672485609724301,0.0015975397030789592
3684.2145346612006,0.4104348358944411,0.001667088204629386
3696.5308493636576,0.45374965603450185,0.0017513869797532073
3708.8883374577335,0.537540041978965,0.0019044444681446332
3721.2871365859164,0.676113244186112,0.0020649199823970844
3733.7273848508326,0.815007088615644,0.0021770014465669458
3746.2092208167815,0.9215426006891068,0.00225481592917411
3758.7327835112833,0.9716849002316442,0.00229822740039244
3771.298212426627,0.9368802796058516,0.0022910330202774295
3783.9056475214256,0.9832461865465971,0.0022560369891321923
3796.555229222173,1.0281258098173485,0.002297908992515916
3809.247098424805,1.05089350069944,0.0023632066302393677
3821.981396496276,1.1425701262899648,0.0024138610034949177
3834.758265276125,1.2482316170782832,0.0025208620023858663
3847.577847078064,1.3286351758229618,0.002548389719515126
3860.4402846915605,1.3529960926613147,0.0025228377840480084
3873.3457213834213,1.378288135586947,0.002540698206079924
3886.294300899397,1.4431652669739496,0.002573005420027198
3899.2861674657775,1.5004667864553065,0.0026002251532043835
3912.3214657910025,1.5052238303995624,0.002609562715818087
3925.4003410672735,1.4961915547124591,0.0026058619547067946
3938.5229389721653,1.4659067230380176,0.002640411880165004
3951.689405670252,1.447609711795354,0.00256747392536351
3964.8998878147377,1.3646825961195694,0.0024189737298441288
3978.154532549086,1.3774661468190372,0.0023659773439366517
3991.453487508664,1.4151861483747843,0.0023359009926631528
4004.796900822377,1.4295104049663725,0.002344271602207046
4018.18492111433,1.4503879571794784,0.002369776490287142
4031.617697505474,1.4611953206070212,0.002362307992808341
4045.0953796152735,1.4294991722429524,0.002354387999999085
4058.618117563371,1.4072834437366497,0.0023476716326717665
4072.1860619712556,1.3669607695545092,0.002276738900510061
4085.799363963945,1.2837123983530248,0.002162167104941777
4099.458175171663,1.2370614281789116,0.002070896977431062
4113.162647731542,1.1793008161909295,0.0020093449916911863
4126.912934289301,1.1510804949153395,0.00197026066400315
4140.709188000954,1.1237881266857888,0.0019362320812748948
4154.551562534517,1.041314647020575,0.0018771594277033508
4168.440212071713,0.9439934018447087,0.0017996417454473966
4182.3752913097,0.8724763951700951,0.0017283689842719243
4196.356955462785,0.8248707998137907,0.0016757357422967254
4210.385360264156,0.7877286654413109,0.0016247941093047657
4224.460661967617,0.7501658970252612,0.0015717222307478297
4238.583017349324,0.7106716717314443,0.0015172190120107958
4252.752583709542,0.689181218019754,0.0014800106014857062
4266.969518874386,0.7201540809671779,0.0014860885882998734
4281.233981197582,0.7737745537246332,0.0015156548870002913
4295.5461295622345,0.8133767746231506,0.0015600082035495122
4309.906123382591,0.8812630439308364,0.0016257979489994335
4324.314122605823,0.9441715386599745,0.001687445219649499
4338.770287713807,0.9813131595406228,0.0016986367311553475
4353.274779724901,0.9687505215782877,0.0016573935221416822
4367.827760195754,0.8758980121489945,0.0015988320128697726
4382.429391223097,0.7916505359837627,0.0015372298044293395
4397.079835445547,0.7971939338153727,0.0015124522969643195
4411.779256045427,0.8699273344360275,0.0015653534387193315
4426.527816750571,0.9267623503467904,0.0016117390864392085
4441.32568183616,0.9530658187505805,0.00161595708111628
4456.17301612654,0.9602138128503435,0.001629810672835076
4471.06998499707,0.9570147148521884,0.0016156526021926076
4486.01675437596,0.940238561485911,0.001605086927969866
4501.013490746111,0.94122563742759,0.0015961576870400576
4516.060361146975,0.942766652442611,0.0015849616856774128
4531.157533176423,0.9306830985402914,0.0015758041101499756
4546.3051749926035,0.9261420040578108,0.0015546543063642605
4561.503455315809,0.9222740124117235,0.0015547668230109755
4576.752543430374,0.9072510350337653,0.0015289526270612795
4592.052609186547,0.8740343248592386,0.001492902144711706
4607.403823002376,0.8046887157641733,0.0014467334509989393
4622.8063558656295,0.7344058240352491,0.0013765483354545422
4638.260379335682,0.7168545278425491,0.0013474726055180818
4653.766065545426,0.7365356718878393,0.0013699520328200132
4669.323587203196,0.7368173633921069,0.001371750425090904
4684.933117594696,0.715470174799303,0.0013387361175977626
4700.594830584916,0.7045236860359747,0.0013088347124273134
4716.308900620076,0.676014030192196,0.0012853910676480873
4732.075502729573,0.6632794759287074,0.0012764836242856658
4747.894812527928,0.6718288058604701,0.0012875197686505466
4763.767006216733,0.6742635649323716,0.0012952480011964584
4779.692260586626,0.6602085980049773,0.0012842592207435912
4795.67075301926,0.6188598632157933,0.0012478207618520877
4811.702661489265,0.5612116059701053,0.0011966472100538865
4827.7881645662455,0.5215173031432689,0.001159231963207261
4843.927441416762,0.5155540005637972,0.0011470051234655063
4860.120671806329,0.515507010260427,0.0011528372491998392
4876.368036101411,0.5197169230340063,0.0011741944711545205
4892.669715271444,0.535326617223548,0.0012146142857271086
4909.025890890844,0.5354563378311632,0.0012648560639393401
4925.436745141022,0.5265895736511345,0.001324510276169214
4941.902460812428,0.5188519262036051,0.0013768261382552135
4958.423221306581,0.5274454150188015,0.0014457623960216679
4974.999210638101,0.5514891492320455,0.0015462412755241086
4991.630613436779,0.5643542072615667,0.0016079989602535542
5008.317614949616,0.5753296809755424,0.00161027593095583
5025.060401042893,0.6012965125833114,0.0016262349031563878
5041.8591582042445,0.6412911838487423,0.0016432607710662
5058.71407354473,0.664501900216512,0.001656534405614364
5075.625334800925,0.6705561855453673,0.001504394086326085
5092.593130337,0.6601236113409814,0.0014710318567900443
5109.61764914683,0.6425371609537629,0.0015012207912830978
5126.699080856102,0.6397029888223751,0.001731090728648507
5143.837615724411,0.6340101154688965,0.0017023264320449065
5161.033444647393,0.6380792348997697,0.0016537414190716763
5178.286759158847,0.627644012823283,0.0016223646635073296
5195.59775143287,0.587459856011971,0.001519636764627569
5212.966614285993,0.5127059622242804,0.0014090394517369874
5230.393541179339,0.45515315320716426,0.0012897394238007447
5247.878726220767,0.43877029915914345,0.001191994157633922
5265.4223641670305,0.45216004800163767,0.0011514788461395723
5283.024650425963,0.47185648543067094,0.0011391192648743437
5300.685781058646,0.48636293345483317,0.0011313530145277309
5318.405952781588,0.5010963524420011,0.00111015597132724
5336.185362968923,0.5045836734905399,0.0010770690203831489
5354.024209654601,0.5027745705292876,0.0010409922848208942
5371.922691534604,0.4861384470636523,0.0009994690686531463
5389.88100796915,0.46369053963842766,0.0009523690786805508
5407.899358984922,0.4342965143313714,0.0009121487036007549
5425.977945277293,0.43190004451328734,0.0008945267683772776
5444.116968212549,0.46128320918873944,0.0009073404990247167
5462.316629830153,0.5024749426932815,0.000931118575450125
5480.577132844979,0.5282906198915509,0.0009450677754533658
5498.89868064958,0.5264149425240311,0.0009275031857828824
5517.28147731645,0.5116750926003736,0.0008955020249030428
5535.725727600293,0.5241252338592853,0.0008890375128155975
5554.23163694031,0.5335303103566973,0.0008884884709914561
5572.79941146248,0.527212697458914,0.0008693557111702538
5591.429257981867,0.5187774959684366,0.0008417228354548748
5610.121384004915,0.5210129469650698,0.0008323219665966687
5628.875997731756,0.5310594882023709,0.0008258253186842852
5647.69330805854,0.5263716278555433,0.0008061272192122647
5666.573524579752,0.5159293041020057,0.0007897568835754101
5685.516857590555,0.5030241960546051,0.0007682406854581373
5704.523518089128,0.48732499005483265,0.0007479196350474368
5723.593717779009,0.47478381896351485,0.0007312493645495119
5742.727669071467,0.46908982910987274,0.0007160031943550724
5761.925585087854,0.4664741858150366,0.0007107526888889394
5781.187679661996,0.46463452306461206,0.0007005133300717693
5800.5141673425605,0.4672770637722713,0.0006929232559371488
5819.905263395445,0.4733948442387243,0.0006948794967864773
5839.361183806187,0.4724052823469272,0.0006843912821983605
5858.882145282354,0.45692206303245686,0.0006649469511326345
5878.468365255977,0.4470799687619556,0.0006508422092656871
5898.12006188596,0.43483175499763527,0.0006409565881330754
5917.837454060502,0.42330053288354447,0.0006298032490854877
5937.620761399551,0.41233723938150807,0.0006132175654985467
5957.470204257241,0.4044328109821433,0.0005960328471543492
5977.386003724353,0.3913389699343328,0.0005789965403832605
5997.368381630775,0.37647812867948216,0.0005608152381294043
6017.417560547961,0.35460316118733126,0.0005399567693951956
6037.533763791432,0.32156438176291674,0.0005137718207369222
6057.717215423248,0.2877556560383223,0.00048485281023164846
6077.968140254503,0.24785593132599731,0.000451760560959851
6098.286763847838,0.22944644663980535,0.00042802998111536486
6118.673312519953,0.24390971705453912,0.0004324847486444484
6139.128013344114,0.27934994512413447,0.0004538461355386476
6159.651094152697,0.31019357024082683,0.0004783433942505807
6180.242783539723,0.33630589766925345,0.0004913871218802614
6200.903310863401,0.3579917303166873,0.0004958011080948012
6221.632906248681,0.37104419023783763,0.000504108899261972
6242.431800589825,0.3749939854554297,0.0005046840836351291
6263.300225552964,0.3741934448925696,0.0005006174591767681
6284.238413578695,0.37500964809855303,0.0004941782963001339
6305.246597884667,0.37012519495987534,0.00048747857136693137
6326.325012468166,0.3632955947353096,0.00047979934069104866
6347.4738921087355,0.35532782867544466,0.0004719008610640091
6368.693472370778,0.342945749246032,0.0004622199808256171
6389.9839896061985,0.33188193767545104,0.00044736952818297433
6411.345680957023,0.321679872219034,0.00044101965115406975
6432.7787843580345,0.31059565960911417,0.0004312075763869947
6454.283538539437,0.30009263889247023,0.00041624688786849026
6475.860183029508,0.29163237838172584,0.0004058667069210064
6497.508958157264,0.2829018493721728,0.00039875573927650615
6519.230105055148,0.2740617844202815,0.0003935916676945617
6541.023865661702,0.26669676801556286,0.0003875038665579965
6562.890482724266,0.26163860674407363,0.0003799604397368058
6584.830199801685,0.25501252385578593,0.00037228496749527293
6606.843261267024,0.24994670171920172,0.00036614400125142696
6628.929912310285,0.2449219076160652,0.0003613746780585048
6651.0903989411345,0.23984448095782343,0.0003554480872932921
6673.324967991654,0.23396123607614328,0.0003469707333101746
6695.633867119077,0.22707162893440805,0.000337833980939134
6718.017344808559,0.22248218950014906,0.0003309626583941093
6740.475650375945,0.21811247587056998,0.00032758509224457616
6763.009033970533,0.214759131219847,0.0003255014272947228
6785.617746577873,0.21111681511418734,0.0003205321941263514
6808.302040022556,0.2076513997466345,0.00031638879774521095
6831.062166971027,0.20162717079463283,0.0003286210114916984
6853.898380934393,0.20132881207715453,0.00032875363366881
6876.81093627124,0.19851980678155712,0.00031390044636597764
6899.8000881904845,0.19488095009708806,0.00030301136435010136
6922.866092754194,0.1941440703393742,0.00029816848082225866
6946.0092068804615,0.19209329871948683,0.000295704288266138
6969.229688346255,0.18993810623431182,0.00029123038193046454
6992.52779579028,0.18869379805318212,0.0002913535673985131
7015.903788715879,0.18819813688285603,0.00028974814146943197
7039.357927493908,0.18693607123872427,0.0002848880426409782
7062.890473365647,0.18426694005234268,0.00028259612312845543
7086.501688445705,0.18177299599110908,0.00028223505123673375
7110.191835724931,0.1799130260353582,0.00028160745480110445
7133.961179073358,0.1778882943875323,0.0002806744692604484
7157.809983243131,0.1767408156350624,0.00027834716217147235
7181.738513871466,0.17269454943617113,0.0002744489483133848
7205.747037483605,0.17026743711864017,0.00027316715305498665
7229.835821495773,0.16737878641257598,0.00027061384684427055
7254.005134218174,0.16211946421856455,0.0002666926534695354
7278.255244857964,0.15618791853712527,0.0002611086880979807
7302.586423522268,0.1519351133621497,0.000255123054362318
7326.998941221176,0.14988065563061892,0.00025058768586223157
7351.493069870756,0.1482552236971414,0.0002489850553940464
7376.069082296098,0.14687985402990475,0.0002490850515333741
7400.727252234339,0.14266351639502547,0.00024492593521695174
7425.467854337722,0.1364206100628345,0.0002389371457204651
7450.291164176657,0.13350724688249857,0.00023723686583265356
7475.197458242774,0.13551155756632777,0.00023773665915021068
7500.187013952019,0.13680265418897988,0.0002384250460993349
7525.260109647734,0.13548105266164034,0.00023792605813925896
7550.4170246037675,0.13058925750090072,0.0003028859437246974
7575.658039027581,0.13904942788746788,0.0003482541304645267
7600.9834340633615,0.13914443183848438,0.00030172262472348874
7626.393491795165,0.1370424305042848,0.00025926743986262314
7651.888495250046,0.13520102858927835,0.00024146435811773763
7677.468728401224,0.1363000242031955,0.00024227742949549302
7703.134476171246,0.13401738141977404,0.00023997730856369708
7728.886024435141,0.1292481163589686,0.00023402798562097485
7754.723660023623,0.12048437596223131,0.00022592151121405041
7780.6476707262755,0.10835337700425655,0.0002150697233702378
7806.658345294771,0.09639630359976381,0.00020528903115787396
7832.755973446074,0.08845605884878022,0.00019809015165849804
7858.940845865665,0.08589676562673124,0.00019546248014724123
7885.213254210794,0.08520986423701771,0.0001963440512744718
7911.573491113709,0.08434458190123481,0.0001950215328554636
7938.021850184939,0.08365430689590639,0.00019428065920328095
7964.558626016547,0.08538493909878334,0.00019506930990168602
7991.184114185413,0.0901319087456097,0.00020156964897823383
8017.898611256533,0.0986917820155954,0.00020943023180104066
8044.702414786312,0.10742545277749707,0.00021664464235405305
8071.595823325894,0.11229105710019152,0.00022223775802354272
8098.57913642448,0.11661176640287405,0.00022769220989727172
8125.652654632648,0.11952563811243896,0.0002315469691704479
8152.81667950573,0.11733612373839925,0.0002301761916680075
8180.07151360715,0.11164782820459618,0.00022535933362097975
8207.417460511802,0.10839213260403291,0.0002208408715985015
8234.854824809423,0.11178565719921493,0.00022860622374210624
8262.383912108004,0.11578378930907864,0.00023202775696789686
8290.005029037178,0.11539054803993629,0.00023012778633995783
8317.718483251632,0.11343718313812996,0.00022846140667152938
8345.524583434553,0.11577042638087864,0.0002297112166245272
8373.42363930105,0.11874959664815582,0.00023341682424147058
8401.415961601604,0.11869051274496178,0.00023300851227900236
8429.501862125539,0.1192669865005527,0.00023213136005702324
8457.681653704487,0.11808543855800024,0.0002304497820738269
8485.955650215876,0.11545549505651659,0.00022780704371859486
8514.324166586423,0.11319913948245285,0.00022705293259589222
8542.787518795645,0.11176908217486622,0.00022530118136588394
8571.346023945849,0.11045738576747989,0.00022466006822036223
8600.000000000004,0.10853767193666775,0.0002243242862665622
