wave,flux,sigma
3300.0000000000005,0.04780827779993942,0.00043493514801655296
3311.0318870238752,0.05268455900108776,0.00043912502478096516
3322.1006535769357,0.05612246309729875,0.00043878719150989377
3333.2064229988164,0.055512990854874725,0.0004418471684686978
3344.349318964206,0.05858589169855925,0.0004409829858095783
3355.52946558699,0.06434454459138783,0.0004488103545861793
3366.7469873959726,0.06959165942587017,0.0004563148965110832
3378.0020093362546,0.07494742875173163,0.0004512708719558692
3389.2946567706267,0.08067901084918504,0.0004673313383808504
3400.6250554809667,0.09061290337604085,0.00047838085231185736
3411.9933316696415,0.10064923612451498,0.0004836498991413752
3423.3996119609133,0.106335973878425,0.0004981478265162904
3434.844023402349,0.10836971663259318,0.0004965371269391614
3446.3266934662315,0.10902032353221841,0.00048091935336424206
3457.847750050986,0.10859315985509639,0.00047412126859494585
3469.4073214825994,0.10825540631334402,0.0004729812245155934
3481.0055365160556,0.1031799526530778,0.0004631594372252366
3492.6425243367635,0.0972887727030575,0.0004400660607888474
3504.318414561997,0.08958040630742654,0.00041511808913959465
3516.033337242342,0.07871785129725065,0.0003905580103370758
3527.7874228631417,0.06834387297418065,0.0003616763456254668
3539.5808023459526,0.05651660715630874,0.0003330309397677446
3551.4136070500026,0.046449921678330175,0.000304648410022804
3563.28596877365,0.037030558429887596,0.0002812434292587136
3575.198019755855,0.03147400110081984,0.00026237984833368463
3587.149892677652,0.027884239669414543,0.0002488646502864815
3599.1417206636297,0.02651415156256371,0.00023934201174487105
3611.173637283412,0.026173949549590035,0.00023276834879889342
3623.2457765531435,0.026088870855912508,0.00022995193492544597
3635.3582729369846,0.027654310145023647,0.00022873262716548458
3647.511261348607,0.02859168322504111,0.0002293646427763481
3659.7048771527016,0.03066061119380046,0.000230323849775767
3671.9392561664827,0.03384123422972348,0.00023323072592173382
3684.2145346612006,0.03699308702218542,0.00023850251867235095
3696.5308493636576,0.041332130703228914,0.00024968322742736866
3708.8883374577335,0.0489067153537711,0.00027010582382739294
3721.2871365859164,0.058429557911692284,0.00028657628396938097
3733.7273848508326,0.06489197607722025,0.00029541191254755763
3746.2092208167815,0.07249100105264208,0.00030426505793563764
3758.7327835112833,0.07868758879860305,0.00031935588678177703
3771.298212426627,0.08514940826789318,0.00033015565595712775
3783.9056475214256,0.09447492333101429,0.00033566329913419364
3796.555229222173,0.10394336902502385,0.00034909851906852004
3809.247098424805,0.11507814097853723,0.0003631608764527022
3821.981396496276,0.12765344358264946,0.0003711714224461763
3834.758265276125,0.1376942491379803,0.00038413016582822425
3847.577847078064,0.14394126921117845,0.0003888748257930919
3860.4402846915605,0.14852002863833666,0.00039049865951090826
3873.3457213834213,0.15507166647647008,0.00039838703983307997
3886.294300899397,0.1626588420045723,0.0004067124158529833
3899.2861674657775,0.16681817572615976,0.00040788170204897404
3912.3214657910025,0.16132405569937905,0.0004012279174376452
3925.4003410672735,0.1535509012642097,0.00038454886713787
3938.5229389721653,0.14000808921448113,0.0003760140260629395
3951.689405670252,0.13967117335585505,0.00036963096806421166
3964.8998878147377,0.13559097267610143,0.0003648810951033705
3978.154532549086,0.13921155004395536,0.00036725428402027433
3991.453487508664,0.14601445552094983,0.0003690780459029271
4004.796900822377,0.1510843344798165,0.00037965740342492
4018.18492111433,0.15582739120646255,0.00039293668110700156
4031.617697505474,0.16319594958540257,0.0003900460127317713
4045.0953796152735,0.16634010625286594,0.0003807223586725301
4058.618117563371,0.16722997831531144,0.0003767793350433545
4072.1860619712556,0.16155249787249662,0.0003713826776948375
4085.799363963945,0.15381675764779235,0.00035999823733780614
4099.458175171663,0.15007641074477696,0.0003530346011170376
4113.162647731542,0.14496927361376621,0.0003509638271893894
4126.912934289301,0.14118144798378582,0.0003476458996471748
4140.709188000954,0.1383417790136534,0.0003391601224203475
4154.551562534517,0.12964118573642697,0.00032621198700155137
4168.440212071713,0.11927003597730233,0.000311730104246854
4182.3752913097,0.10940151832533179,0.0002984029407940657
4196.356955462785,0.10152951352815817,0.000286531672956612
4210.385360264156,0.09476739285898252,0.0002754196895466476
4224.460661967617,0.08885904591169537,0.0002645716714149594
4238.583017349324,0.08391991374201006,0.0002540269345532944
4252.752583709542,0.0794319370642964,0.00024662521358510126
4266.969518874386,0.08283698182787377,0.00024662765712549857
4281.233981197582,0.08990707493122121,0.0002533016424128497
4295.5461295622345,0.09705331126698821,0.00026224760674086226
4309.906123382591,0.10432017326686456,0.00027236542249688226
4324.314122605823,0.10860929264195888,0.0002804174973944865
4338.770287713807,0.11230059886494331,0.0002792248790287425
4353.274779724901,0.10752523766232724,0.0002715989530724611
4367.827760195754,0.10214739032367748,0.0002665484119754752
4382.429391223097,0.0994957936835055,0.0002648471406757988
4397.079835445547,0.10296009801809264,0.0002647484041411262
4411.779256045427,0.1100433515063309,0.000271882568834197
4426.527816750571,0.11427183503401107,0.000277506088215046
4441.32568183616,0.11954515604129623,0.0002801638212761987
4456.17301612654,0.12611076233063453,0.00028719219624211986
4471.06998499707,0.1287671111726515,0.0002881082673338122
4486.01675437596,0.12647769388784266,0.00028621221184587503
4501.013490746111,0.1218901889518404,0.00028085259859180134
4516.060361146975,0.11823152971308457,0.0002749099909207387
4531.157533176423,0.11478462518594348,0.00027112126398558196
4546.3051749926035,0.1127791790025337,0.00026634969307092165
4561.503455315809,0.11206642352757307,0.0002653022994450839
4576.752543430374,0.10595213665084446,0.00025703040681208423
4592.052609186547,0.09693961501040053,0.00024620469182942706
4607.403823002376,0.08977776228047553,0.00023882402034767147
4622.8063558656295,0.08560964358445122,0.0002311791787226108
4638.260379335682,0.08509965214351098,0.00022819111506393368
4653.766065545426,0.0858435876042353,0.00023040610906798265
4669.323587203196,0.08352067980532757,0.0002286984030894991
4684.933117594696,0.08110583970294691,0.00022254682638116977
4700.594830584916,0.08040159204323377,0.0002195698075409122
4716.308900620076,0.08229584649949544,0.00022084530361890286
4732.075502729573,0.0849728554321734,0.00022346167231435978
4747.894812527928,0.08294885041539177,0.00022180257575749745
4763.767006216733,0.07625242610017716,0.0002149730586882074
4779.692260586626,0.06999439943872177,0.00020592423251058006
4795.67075301926,0.06250680027314937,0.00019638496290790271
4811.702661489265,0.05834300592379035,0.00019058852795200348
4827.7881645662455,0.05963725582523759,0.00019093741769596104
4843.927441416762,0.06252783016459315,0.0001938790624216765
4860.120671806329,0.06575113502661352,0.00019718511877489376
4876.368036101411,0.0682232959712021,0.0002004709937288369
4892.669715271444,0.06992697137946954,0.00020326563920688298
4909.025890890844,0.07021092830212723,0.00020694120798101661
4925.436745141022,0.07075437352776304,0.0002122699468344125
4941.902460812428,0.0729672679549205,0.00021688635744198712
4958.423221306581,0.07569867728017991,0.00022313319349511344
4974.999210638101,0.07889950083399343,0.0002369157856954776
4991.630613436779,0.08313378725930767,0.0002537828385159357
5008.317614949616,0.08707291707450839,0.00027061921389549517
5025.060401042893,0.09144416874661097,0.00029344808367343377
5041.8591582042445,0.09464434348864689,0.0003114215121650827
5058.71407354473,0.09574119179476354,0.000311312083521418
5075.625334800925,0.09456559121489029,0.0002760176380688474
5092.593130337,0.09179306691354026,0.0002706618797994262
5109.61764914683,0.09228888920692149,0.0002698096664098257
5126.699080856102,0.09726849611465604,0.0004918460577726343
5143.837615724411,0.0988707911206926,0.00046217567339756097
5161.033444647393,0.0954597030638489,0.0004122163229167851
5178.286759158847,0.0862451035455673,0.0003507010782869756
5195.59775143287,0.07721666733074323,0.0002972930732304451
5212.966614285993,0.07165035058598851,0.00027652197161036617
5230.393541179339,0.06949670968022066,0.0002682121829633181
5247.878726220767,0.06979285901593024,0.0002604027169560171
5265.4223641670305,0.07105307998008031,0.000256567161811042
5283.024650425963,0.07409887822871493,0.00025395841760102796
5300.685781058646,0.07614603039296582,0.0002493134787449198
5318.405952781588,0.0762941453696699,0.00023809660532672029
5336.185362968923,0.07410994341460686,0.00022489063658980284
5354.024209654601,0.07148885748981089,0.00021177323287622076
5371.922691534604,0.06572531425902954,0.0001993838639388122
5389.88100796915,0.06236692439723263,0.00018992674214595372
5407.899358984922,0.06249665515315352,0.00018592969034807863
5425.977945277293,0.06775506478121791,0.0001876617355645527
5444.116968212549,0.07505176279711061,0.00019241107951650232
5462.316629830153,0.08115276112622881,0.00019637401100793873
5480.577132844979,0.08358090068340555,0.0001974080099801496
5498.89868064958,0.0821056303266601,0.0001933326237043905
5517.28147731645,0.08123988482040942,0.00018767077612615442
5535.725727600293,0.0821830561771654,0.00018570205033445475
5554.23163694031,0.08461762730021156,0.00018627912404085647
5572.79941146248,0.0856444416163634,0.0001852182177737844
5591.429257981867,0.08648900000372758,0.00018148377828724335
5610.121384004915,0.08713222390191108,0.00017954080593452547
5628.875997731756,0.08658167810016566,0.0001767965856503228
5647.69330805854,0.0833780242950739,0.00017015297336335397
5666.573524579752,0.07795116961461031,0.0001638019067996006
5685.516857590555,0.0736853219787702,0.00015725057438044276
5704.523518089128,0.0715053855097679,0.00015254141128542766
5723.593717779009,0.07136541378204504,0.00015013810661281788
5742.727669071467,0.07272328052213062,0.0001488011864995818
5761.925585087854,0.07485952930148765,0.00014953077062729037
5781.187679661996,0.0755141007023115,0.00014854569823074556
5800.5141673425605,0.07713911528707834,0.00014788081108585373
5819.905263395445,0.07884139296281922,0.00014886888684060025
5839.361183806187,0.07645159616946823,0.00014593589408427372
5858.882145282354,0.07251885683521114,0.00014061736246663022
5878.468365255977,0.07006721529520898,0.00013498815312215837
5898.12006188596,0.06151404380155419,0.00013023598741057377
5917.837454060502,0.061286651720170116,0.00012658710472697953
5937.620761399551,0.05744402462297389,0.00012219335499601513
5957.470204257241,0.05532087156083874,0.00011782513470497523
5977.386003724353,0.05324666437242028,0.00011378896014767885
5997.368381630775,0.049240411102772254,0.00010831879546908427
6017.417560547961,0.04350745264295575,0.00010173288362258177
6037.533763791432,0.03880323635421343,9.602912535400684e-05
6057.717215423248,0.03684236084157957,9.312545700554625e-05
6077.968140254503,0.036982923405581264,9.259516818422217e-05
6098.286763847838,0.04002283481845441,9.400041756406469e-05
6118.673312519953,0.0459076078752768,9.836102469455126e-05
6139.128013344114,0.05351371594859197,0.00010448927171306722
6159.651094152697,0.0594987292988873,0.00011024911078330126
6180.242783539723,0.06412254380367527,0.00011352388646583535
6200.903310863401,0.06959118810914636,0.0001154798113681506
6221.632906248681,0.07363042386598923,0.00011900053167637322
6242.431800589825,0.07692167788944385,0.00012077953562651905
6263.300225552964,0.07872955806207818,0.0001205164042772031
6284.238413578695,0.07884320381526955,0.00011902829551501988
6305.246597884667,0.08060521338819626,0.00011831518031832088
6326.325012468166,0.080544350369528,0.00011730595155094426
6347.4738921087355,0.07893016922023403,0.00011538093014242193
6368.693472370778,0.07655485180169871,0.00011317935389322955
6389.9839896061985,0.07449356014471394,0.0001099818054959433
6411.345680957023,0.0721460473925381,0.0001088344052309361
6432.7787843580345,0.0694426347830672,0.00010675852946948805
6454.283538539437,0.068028208903328,0.00010381080366493771
6475.860183029508,0.0665231620513203,0.00010210253898559291
6497.508958157264,0.06536024796746147,0.00010115135339053944
6519.230105055148,0.06464902210538709,0.00010055540071207646
6541.023865661702,0.06331156281850889,9.948139589335127e-05
6562.890482724266,0.0630429378482043,9.805328069149775e-05
6584.830199801685,0.06202313522690274,9.634727955282305e-05
6606.843261267024,0.06128249213298724,9.478435950132784e-05
6628.929912310285,0.060357075661669965,9.35760032124054e-05
6651.0903989411345,0.059048313717776565,9.185019189272912e-05
6673.324967991654,0.057254789588382746,8.937142812852326e-05
6695.633867119077,0.05590708896807717,8.703795607456616e-05
6718.017344808559,0.05533690109699184,8.560872485315994e-05
6740.475650375945,0.05505649292780347,8.513500767016462e-05
6763.009033970533,0.054817679372491,8.51032830485257e-05
6785.617746577873,0.054180423389568036,8.420661401038621e-05
6808.302040022556,0.05341997469251672,8.493816388390115e-05
6831.062166971027,0.05280896614336401,8.733580058883109e-05
6853.898380934393,0.052660492513819414,8.565851580665456e-05
6876.81093627124,0.05235116066305683,8.311502639486097e-05
6899.8000881904845,0.050550202113981015,8.096718555574437e-05
6922.866092754194,0.051458415159235826,8.052608801057918e-05
6946.0092068804615,0.050659390568688484,7.975671196134958e-05
6969.229688346255,0.04985932591257843,7.831358337405584e-05
6992.52779579028,0.0500784010582556,7.847875301845632e-05
7015.903788715879,0.04967420067756316,7.814398262964463e-05
7039.357927493908,0.04978401662701893,7.693069153338876e-05
7062.890473365647,0.04945828270720626,7.664482298858903e-05
7086.501688445705,0.049288865991148706,7.698299654520923e-05
7110.191835724931,0.048677939929357206,7.734198301232653e-05
7133.961179073358,0.04688879872485742,7.772815084010008e-05
7157.809983243131,0.045796234269158714,7.648368594368763e-05
7181.738513871466,0.04505323546269526,7.558332534494114e-05
7205.747037483605,0.044074861817586006,7.548715465261038e-05
7229.835821495773,0.04347767051287395,7.481350508230018e-05
7254.005134218174,0.0426370936712477,7.347000263043823e-05
7278.255244857964,0.04149136250800897,7.16350433305147e-05
7302.586423522268,0.041284609750990166,7.004452879396826e-05
7326.998941221176,0.04061277208083778,6.848675936843828e-05
7351.493069870756,0.039906651456363504,6.722851291253996e-05
7376.069082296098,0.03685375578588834,6.554790290103267e-05
7400.727252234339,0.035817444938203394,6.426824318672467e-05
7425.467854337722,0.03607157735342495,6.409095947798718e-05
7450.291164176657,0.036356453069148045,6.442131788576593e-05
7475.197458242774,0.03669777065681787,6.460789772923172e-05
7500.187013952019,0.03649193862780317,6.45174832359063e-05
7525.260109647734,0.03677760160044427,6.602444170986877e-05
7550.4170246037675,0.03599779107107502,8.172573391849277e-05
7575.658039027581,0.03685439978252324,8.402004445117765e-05
7600.9834340633615,0.0359654590443573,7.33493037105235e-05
7626.393491795165,0.03446911337451416,6.414044040327706e-05
7651.888495250046,0.03213098966711561,6.0838018203403245e-05
7677.468728401224,0.028621527137515732,5.823059313489511e-05
7703.134476171246,0.024041548812297003,5.3773734537369495e-05
7728.886024435141,0.018956619325684838,4.808944251894159e-05
7754.723660023623,0.01384609801271192,4.234513608174788e-05
7780.6476707262755,0.010372601517096555,3.76535129449775e-05
7806.658345294771,0.008716600090904518,3.552077572089991e-05
7832.755973446074,0.008378814437161822,3.465176821054742e-05
7858.940845865665,0.008897266306216716,3.582949435436701e-05
7885.213254210794,0.009073884455109791,3.6167564837046656e-05
7911.573491113709,0.009599204374094011,3.7169157595393545e-05
7938.021850184939,0.011292883716398158,3.954964223931587e-05
7964.558626016547,0.014430295008863007,4.3496994988092025e-05
7991.184114185413,0.01831703944765761,4.8504351702408504e-05
8017.898611256533,0.021811615784415032,5.219801759616526e-05
8044.702414786312,0.02456925201714847,5.484394205405586e-05
8071.595823325894,0.02598480028208041,5.6820250505029204e-05
8098.57913642448,0.02607674942411041,5.877653242479414e-05
8125.652654632648,0.026291633730593365,5.979658547741682e-05
8152.81667950573,0.02616746782508807,5.919044446859038e-05
8180.07151360715,0.02649700694457942,5.987886242637676e-05
8207.417460511802,0.027363691812235413,5.947066757641598e-05
8234.854824809423,0.027386984238029106,6.121155758242558e-05
8262.383912108004,0.027643180756411655,6.0566763783116617e-05
8290.005029037178,0.02853951675551955,6.126667317014863e-05
8317.718483251632,0.030250613855312684,6.180145311114501e-05
8345.524583434553,0.03182676072476413,6.332455122122077e-05
8373.42363930105,0.03262816233615555,6.39858923377684e-05
8401.415961601604,0.03351371487906733,6.434882791881323e-05
8429.501862125539,0.03412948268818072,6.463487652230751e-05
8457.681653704487,0.03426306560051267,6.438078192709206e-05
8485.955650215876,0.03373094701815074,6.388552011481031e-05
8514.324166586423,0.0331245129677411,6.368998778073959e-05
8542.787518795645,0.03257580563359401,6.332644346280276e-05
8571.346023945849,0.03210073792803355,6.273759368028525e-05
8600.000000000004,0.0317646957722755,6.253260136853303e-05
